sl,ratio,rr,n,stop,tp,exp
5.0,0-0.1,3.0,13550,0.7501845018450185,0.24981549815498155,-0.1007380073800738
5.0,0-0.1,10.0,13550,0.9042066420664207,0.09498154981549815,-0.05034317342997467
5.0,0-0.1,20.0,13550,0.9408856088560885,0.0425830258302583,-0.016376384087594214
5.0,0.1-0.2,3.0,13206,0.7412539754656974,0.25836740875359687,-0.06541344843253066
5.0,0.1-0.2,10.0,13206,0.8813418143268211,0.08624867484476753,0.04543389397591935
5.0,0.1-0.2,20.0,13206,0.8975465697410268,0.01597758594578222,0.074867483881598
5.0,0.2-0.35,3.0,17260,0.7265932792584009,0.26575898030127465,-0.019965237601382864
5.0,0.2-0.35,10.0,17260,0.8182502896871379,0.022479721900347624,0.0012804174724522527
5.0,0.2-0.35,20.0,17260,0.8186558516801854,0.00028968713789107763,0.007033603765752539
5.0,0.35-0.6,3.0,7032,0.7293799772468714,0.24175199089874858,-0.06405716718940552
5.0,0.35-0.6,10.0,7032,0.787542662116041,0.007110352673492605,-0.06614050071853905
5.0,0.35-0.6,20.0,7032,0.787542662116041,0.0,-0.0739903305176183
8.0,0-0.1,3.0,3971,0.7393603626290607,0.2606396373709393,-0.01994145051624276
8.0,0-0.1,10.0,3971,0.901787962729791,0.09644925711407706,0.007853815159909343
8.0,0-0.1,20.0,3971,0.9350289599597079,0.038781163434903045,0.02702404935784437
8.0,0.1-0.2,3.0,14439,0.7408407784472609,0.25888219405776025,-0.02645612577048272
8.0,0.1-0.2,10.0,14439,0.888288662649768,0.0795068910589376,0.004529832398365538
8.0,0.1-0.2,20.0,14439,0.8999238174388808,0.012812521642773045,0.028419125285684604
8.0,0.2-0.35,3.0,9778,0.7210063407649826,0.2632440171814277,0.02307475966455308
8.0,0.2-0.35,10.0,9778,0.8104929433421968,0.030987932092452444,0.13114261607690733
8.0,0.2-0.35,20.0,9778,0.8124360809981591,0.00040908161178155044,0.12797542953569238
8.0,0.35-0.6,3.0,18205,0.6826695962647624,0.21664377918154354,0.04448812139522109
8.0,0.35-0.6,10.0,18205,0.7110683878055479,0.001318319143092557,0.057067083218895906
8.0,0.35-0.6,20.0,18205,0.7110683878055479,0.0,0.05846779730843175
8.0,0.6-1.0,3.0,4677,0.6711567243959803,0.14667521915757964,-0.07464052811631387
8.0,0.6-1.0,10.0,4677,0.6820611503100278,0.0,-0.10766116100064144
8.0,0.6-1.0,20.0,4677,0.6820611503100278,0.0,-0.10766116100064144
10.0,0-0.1,3.0,1334,0.7218890554722639,0.27811094452773616,0.06244377811094457
10.0,0-0.1,10.0,1334,0.8800599700149925,0.1184407796101949,0.25781484257871046
10.0,0-0.1,20.0,1334,0.9100449775112444,0.03973013493253373,0.34732008859671565
10.0,0.1-0.2,3.0,12216,0.7425507531106745,0.25695808775376555,-0.021285609042939184
10.0,0.1-0.2,10.0,12216,0.8844138834315651,0.0756385068762279,0.022540110962729957
10.0,0.1-0.2,20.0,12216,0.8958742632612967,0.010969220694171578,0.026043711877632204
10.0,0.2-0.35,3.0,10861,0.7230457600589264,0.2698646533468373,0.04718027806662223
10.0,0.2-0.35,10.0,10861,0.8233127704631249,0.032685756376024305,0.07767700926748766
10.0,0.2-0.35,20.0,10861,0.8238652057821564,0.0,0.06788509243147602
10.0,0.35-0.6,3.0,14236,0.6742764821579095,0.19197808373138522,0.012902149572014852
10.0,0.35-0.6,10.0,14236,0.6961225063220006,0.000913177858949143,0.030551067925492312
10.0,0.35-0.6,20.0,14236,0.6961225063220006,0.0,0.030832045661255567
10.0,0.6-1.0,3.0,12005,0.6084964598084132,0.1172844648063307,0.032178259173757974
10.0,0.6-1.0,10.0,12005,0.6125780924614744,0.0,0.026870053815890037
10.0,0.6-1.0,20.0,12005,0.6125780924614744,0.0,0.026870053815890037
10.0,1.0-9,3.0,429,0.4731934731934732,0.013986013986013986,0.07214452208894671
10.0,1.0-9,10.0,429,0.4731934731934732,0.0,0.06614219153121911
10.0,1.0-9,20.0,429,0.4731934731934732,0.0,0.06614219153121911
12.0,0-0.1,3.0,517,0.7001934235976789,0.29980657640232106,0.15755963894261757
12.0,0-0.1,10.0,517,0.8704061895551257,0.12959381044487428,0.38386524822695045
12.0,0-0.1,20.0,517,0.8974854932301741,0.04448742746615087,0.5168036719739707
12.0,0.1-0.2,3.0,8825,0.7364305949008498,0.2623229461756374,0.009858356960209251
12.0,0.1-0.2,10.0,8825,0.875014164305949,0.07354107648725212,0.08178470238522607
12.0,0.1-0.2,20.0,8825,0.8841926345609065,0.005439093484419263,0.06856940492804706
12.0,0.2-0.35,3.0,11639,0.7511813729701864,0.2421170203625741,-0.05608299678433142
12.0,0.2-0.35,10.0,11639,0.8431136695592405,0.030071311968382163,-0.03807421896509491
12.0,0.2-0.35,20.0,11639,0.8446601941747572,0.0016324426497121747,-0.05255677816235468
12.0,0.35-0.6,3.0,11106,0.6423554835224203,0.2106969205834684,0.12638063507341418
12.0,0.35-0.6,10.0,11106,0.6653160453808752,0.0025211597334773997,0.172057896549935
12.0,0.35-0.6,20.0,11106,0.6653160453808752,0.0,0.17127941339046115
12.0,0.6-1.0,3.0,16864,0.5878795066413662,0.09238614800759014,-5.929798443297316e-05
12.0,0.6-1.0,10.0,16864,0.5917931688804554,0.0,0.0039704894575724415
12.0,0.6-1.0,20.0,16864,0.5917931688804554,0.0,0.0039704894575724415
12.0,1.0-9,3.0,2130,0.4704225352112676,0.024413145539906103,0.09272300532621115
12.0,1.0-9,10.0,2130,0.4704225352112676,0.0,0.07629108038761519
12.0,1.0-9,20.0,2130,0.4704225352112676,0.0,0.07629108038761519
15.0,0-0.1,3.0,407,0.6732186732186732,0.32678132678132676,0.2737919737919738
15.0,0-0.1,10.0,407,0.8574938574938575,0.12039312039312039,0.4485257988382224
15.0,0-0.1,20.0,407,0.8673218673218673,0.029484029484029485,0.5798525773531876
15.0,0.1-0.2,3.0,4253,0.7582882671055725,0.24077122031507173,-0.06933145230896294
15.0,0.1-0.2,10.0,4253,0.8859628497531155,0.06677639313425818,-0.027043655771157495
15.0,0.1-0.2,20.0,4253,0.8934869503879614,0.006818716200329179,-0.013253390950872948
15.0,0.2-0.35,3.0,12204,0.7310717797443461,0.26007866273353,0.026040642424350748
15.0,0.2-0.35,10.0,12204,0.8169452638479188,0.02810553916748607,0.0664099199838096
15.0,0.2-0.35,20.0,12204,0.8194854146181579,8.194034742707309e-05,0.048130394735439765
15.0,0.35-0.6,3.0,9892,0.661342498989082,0.22169429842296806,0.11895639553195622
15.0,0.35-0.6,10.0,9892,0.69561261625556,0.002122927618277396,0.1487902680471688
15.0,0.35-0.6,20.0,9892,0.69561261625556,0.0,0.14883912896074897
15.0,0.6-1.0,3.0,15541,0.5433369796023422,0.07033009458850782,0.05619865716975654
15.0,0.6-1.0,10.0,15541,0.5459751624734573,0.0,0.05912532415950932
15.0,0.6-1.0,20.0,15541,0.5459751624734573,0.0,0.05912532415950932
15.0,1.0-9,3.0,8784,0.45070582877959925,0.017304189435336976,0.010891013575687263
15.0,1.0-9,10.0,8784,0.45070582877959925,0.0,0.008627428310687472
15.0,1.0-9,20.0,8784,0.45070582877959925,0.0,0.008627428310687472
20.0,0.1-0.2,3.0,1279,0.7107114933541829,0.28928850664581707,0.1321540265832682
20.0,0.1-0.2,10.0,1279,0.8170445660672401,0.07505863956215794,0.4448494916506536
20.0,0.1-0.2,20.0,1279,0.8225175918686474,0.006254886630179828,0.5513975743020858
20.0,0.2-0.35,3.0,9235,0.7350297780184082,0.25002707092582566,0.007068218790805515
20.0,0.2-0.35,10.0,9235,0.8140768814293449,0.021981591770438548,0.03143205186286574
20.0,0.2-0.35,20.0,9235,0.8145100162425555,0.0002165674066053059,0.02157011373592789
20.0,0.35-0.6,3.0,10929,0.7155274956537652,0.19754780858266996,-0.0365198097060945
20.0,0.35-0.6,10.0,10929,0.7401409095068168,0.0026534907127825054,-0.0153685154581813
20.0,0.35-0.6,20.0,10929,0.7402324091865679,0.0,-0.01489500459801707
20.0,0.6-1.0,3.0,10589,0.4898479554254415,0.07743885163849278,0.18386769300557665
20.0,0.6-1.0,10.0,10589,0.4939087732552649,0.0,0.17399305880387414
20.0,0.6-1.0,20.0,10589,0.4939087732552649,0.0,0.17399305880387414
20.0,1.0-9,3.0,18994,0.3786458881752132,0.009002843003053596,0.04545185319913397
20.0,1.0-9,10.0,18994,0.3794356112456565,0.0,0.040794461405002154
20.0,1.0-9,20.0,18994,0.3794356112456565,0.0,0.040794461405002154
25.0,0.1-0.2,3.0,495,0.7090909090909091,0.2909090909090909,0.14363636363636367
25.0,0.1-0.2,10.0,495,0.8383838383838383,0.06262626262626263,0.23448484998760824
25.0,0.1-0.2,20.0,495,0.8383838383838383,0.00404040404040404,0.38252525059863796
25.0,0.2-0.35,3.0,5063,0.747777997234841,0.23464349200079004,-0.047762196417629306
25.0,0.2-0.35,10.0,5063,0.8141418131542564,0.016788465336756864,-0.005293303825860124
25.0,0.2-0.35,20.0,5063,0.8147343472249654,0.0,-0.007015603099157215
25.0,0.35-0.6,3.0,11947,0.6816774085544488,0.19628358583744873,0.02554197692535339
25.0,0.35-0.6,10.0,11947,0.7072905331882481,0.0023436846070143133,0.030067799361043188
25.0,0.35-0.6,20.0,11947,0.7072905331882481,0.0,0.029799112738085737
25.0,0.6-1.0,3.0,9251,0.5315101070154578,0.09555723705545346,0.14673008322880066
25.0,0.6-1.0,10.0,9251,0.5381039887579722,0.0,0.14283104541900682
25.0,0.6-1.0,20.0,9251,0.5381039887579722,0.0,0.14283104541900682
25.0,1.0-9,3.0,24325,0.3045426515930113,0.0028776978417266188,0.05826762556103197
25.0,1.0-9,10.0,24325,0.3045426515930113,0.0,0.059461047964788995
25.0,1.0-9,20.0,24325,0.3045426515930113,0.0,0.059461047964788995
30.0,0.1-0.2,3.0,407,0.7223587223587223,0.27764127764127766,0.09389844389844397
30.0,0.1-0.2,10.0,407,0.7886977886977887,0.051597051597051594,0.4704954928008386
30.0,0.1-0.2,20.0,407,0.7886977886977887,0.0,0.5136363622695088
30.0,0.2-0.35,3.0,2853,0.729758149316509,0.24290220820189273,0.013614324190419911
30.0,0.2-0.35,10.0,2853,0.788994041359972,0.008762705923589204,0.018270241506881026
30.0,0.2-0.35,20.0,2853,0.7893445495969156,0.0,0.01840168176146416
30.0,0.35-0.6,3.0,10290,0.6764820213799806,0.1903790087463557,0.038765791795543354
30.0,0.35-0.6,10.0,10290,0.6991253644314869,0.001943634596695821,0.0494395851023656
30.0,0.35-0.6,20.0,10290,0.6991253644314869,0.0,0.046980887365349305
30.0,0.6-1.0,3.0,9887,0.5646808941033681,0.09305148174370385,0.054850645623866406
30.0,0.6-1.0,10.0,9887,0.5666026094872054,0.0,0.05075772879454648
30.0,0.6-1.0,20.0,9887,0.5666026094872054,0.0,0.05075772879454648
30.0,1.0-9,3.0,27644,0.25640283605845754,0.0034365504268557374,0.06027438127624769
30.0,1.0-9,10.0,27644,0.2566198813485747,0.0,0.058833140243268085
30.0,1.0-9,20.0,27644,0.2566198813485747,0.0,0.058833140243268085
40.0,0.2-0.35,3.0,550,0.6618181818181819,0.33454545454545453,0.3333181817965073
40.0,0.2-0.35,10.0,550,0.7072727272727273,0.025454545454545455,0.7820113602551548
40.0,0.2-0.35,20.0,550,0.7072727272727273,0.0,0.7697386347163808
40.0,0.35-0.6,3.0,6290,0.6723370429252782,0.1659777424483307,0.010890301626652422
40.0,0.35-0.6,10.0,6290,0.6842607313195549,0.0003179650238473768,0.02517686811563034
40.0,0.35-0.6,20.0,6290,0.6842607313195549,0.0,0.024697933328783735
40.0,0.6-1.0,3.0,11515,0.5738601823708207,0.08171949630916196,0.007496200669378935
40.0,0.6-1.0,10.0,11515,0.5806339557099436,0.0,-0.016235344970652977
40.0,0.6-1.0,20.0,11515,0.5806339557099436,0.0,-0.016235344970652977
40.0,1.0-9,3.0,32671,0.19999387836307428,0.004315754032628325,0.05653312563134953
40.0,1.0-9,10.0,32671,0.19999387836307428,0.0,0.055758355926924213
40.0,1.0-9,20.0,32671,0.19999387836307428,0.0,0.055758355926924213
50.0,0.2-0.35,3.0,451,0.6496674057649667,0.29490022172949004,0.31032150799974384
50.0,0.2-0.35,10.0,451,0.6651884700665188,0.004434589800443459,0.655099781163516
50.0,0.2-0.35,20.0,451,0.6651884700665188,0.0,0.6491130853558327
50.0,0.35-0.6,3.0,3106,0.6532517707662588,0.15099806825499035,0.006625885657380928
50.0,0.35-0.6,10.0,3106,0.6619446233097231,0.0,0.015809722694676936
50.0,0.35-0.6,20.0,3106,0.6619446233097231,0.0,0.015809722694676936
50.0,0.6-1.0,3.0,9993,0.5641949364555189,0.06934854398078655,0.018670068976385436
50.0,0.6-1.0,10.0,9993,0.5682978084659261,0.0,0.004766836563701463
50.0,0.6-1.0,20.0,9993,0.5682978084659261,0.0,0.004766836563701463
50.0,1.0-9,3.0,37531,0.18097039780448163,0.0018118355492792624,0.03389957630847183
50.0,1.0-9,10.0,37531,0.18097039780448163,0.0,0.03387386423909583
50.0,1.0-9,20.0,37531,0.18097039780448163,0.0,0.03387386423909583
